x y theta v w
0 0 0.558689 0.4716 0.00269642
0.0399893 0.0249983 0.558959 0.471302 0.00539695
0.0799147 0.0499867 0.55977 0.47041 0.0108241
0.119712 0.074955 0.561127 0.468924 0.0163119
0.159318 0.0998934 0.563037 0.466849 0.0218918
0.198669 0.124792 0.565511 0.464189 0.0275964
0.237703 0.14964 0.568563 0.46095 0.0334598
0.276356 0.174429 0.572211 0.457139 0.0395184
0.314567 0.199148 0.576477 0.452765 0.0458111
0.352274 0.223787 0.581386 0.447838 0.0523801
0.389418 0.248337 0.586967 0.442368 0.0592716
0.425939 0.272787 0.593256 0.436369 0.0665361
0.461779 0.297128 0.600293 0.429855 0.0742299
0.49688 0.321351 0.608124 0.422842 0.0824155
0.531186 0.345445 0.6168 0.415346 0.0911629
0.564642 0.3694 0.626383 0.407388 0.100551
0.597195 0.393208 0.636941 0.398987 0.110668
0.628793 0.416859 0.648552 0.390166 0.121616
0.659385 0.440343 0.661304 0.380949 0.133509
0.688921 0.463651 0.675298 0.371364 0.146477
0.717356 0.486773 0.690649 0.361438 0.160668
0.744643 0.509701 0.707488 0.351204 0.176251
0.770739 0.532424 0.725964 0.340695 0.193419
0.795602 0.554935 0.746244 0.32995 0.212388
0.819192 0.577224 0.768523 0.319008 0.233405
0.841471 0.599282 0.793017 0.307915 0.256742
0.862404 0.6211 0.819975 0.29672 0.282702
0.881958 0.64267 0.849673 0.285479 0.311612
0.9001 0.663983 0.882426 0.274252 0.343813
0.916803 0.68503 0.918578 0.263107 0.379647
0.932039 0.705803 0.95851 0.252122 0.419426
0.945784 0.726294 1.00263 0.24138 0.463386
0.958016 0.746494 1.05136 0.230977 0.511622
0.968715 0.766396 1.10512 0.221019 0.563991
0.977865 0.785991 1.16431 0.211624 0.619984
0.98545 0.805272 1.22924 0.20292 0.678579
0.991458 0.824231 1.30009 0.195042 0.738098
0.995881 0.84286 1.37685 0.188132 0.796107
0.99871 0.861152 1.4592 0.182331 0.849442
0.999942 0.879099 1.54651 0.177769 0.894444
0.999574 0.896695 1.63774 0.174556 0.927424
0.997606 0.913932 1.73154 0.172771 0.945329
0.994043 0.930804 1.82629 0.172453 0.946405
0.98889 0.947303 1.9203 0.173594 0.930628
0.982154 0.963424 2.01196 0.176142 0.899708
0.973848 0.979159 2.09988 0.180005 0.856675
0.963983 0.994502 2.18305 0.185061 0.805209
0.952576 1.00945 2.26081 0.191169 0.748984
0.939645 1.02399 2.33283 0.198181 0.691185
0.925212 1.03812 2.3991 0.205948 0.63427
0.909297 1.05184 2.4598 0.214329 0.579944
0.891929 1.06514 2.51524 0.22319 0.52925
0.873133 1.07801 2.56581 0.232413 0.48271
0.85294 1.09044 2.61195 0.24189 0.440483
0.831383 1.10245 2.65407 0.251524 0.402484
0.808496 1.11401 2.69259 0.261231 0.368482
0.784316 1.12513 2.7279 0.270934 0.338173
0.758881 1.13579 2.76035 0.280566 0.31122
0.732231 1.146 2.79026 0.290069 0.287286
0.704411 1.15576 2.81791 0.299389 0.266049
0.675463 1.16505 2.84355 0.308478 0.247214
0.645435 1.17387 2.86743 0.317295 0.230511
0.614374 1.18223 2.88973 0.325801 0.215701
0.582331 1.19011 2.91063 0.333962 0.202573
0.549355 1.19752 2.9303 0.341747 0.190942
0.515501 1.20445 2.94887 0.349128 0.180647
0.480823 1.21089 2.96647 0.35608 0.171549
0.445375 1.21686 2.98322 0.36258 0.163526
0.409214 1.22233 2.99921 0.368608 0.156475
0.372399 1.22732 3.01454 0.374146 0.150306
0.334988 1.23181 3.0293 0.379177 0.144942
0.297041 1.23581 3.04356 0.383686 0.140318
0.258619 1.23932 3.05739 0.387662 0.136379
0.219784 1.24234 3.07086 0.391093 0.13308
0.180596 1.24485 3.08403 0.393971 0.130382
0.14112 1.24687 3.09696 0.396286 0.128254
0.101418 1.24839 3.1097 0.398034 0.126674
0.0615537 1.24941 3.12231 0.399209 0.125624
0.021591 1.24993 3.13484 0.399809 0.125091
-0.0184063 1.24995 3.14735 0.399832 0.125071
-0.0583741 1.24947 3.15988 0.399278 0.125562
-0.0982486 1.24849 3.17248 0.398149 0.126571
-0.137966 1.24701 3.18521 0.396446 0.128109
-0.177462 1.24503 3.19812 0.394176 0.130192
-0.216675 1.24255 3.21127 0.391343 0.132843
-0.255541 1.23958 3.22471 0.387956 0.136093
-0.293998 1.23611 3.23851 0.384023 0.13998
-0.331985 1.23215 3.25273 0.379555 0.144547
-0.369441 1.22769 3.26745 0.374565 0.14985
-0.406306 1.22275 3.28273 0.369067 0.155953
-0.44252 1.21731 3.29867 0.363078 0.162931
-0.478027 1.21139 3.31535 0.356614 0.170872
-0.512769 1.20498 3.33288 0.349698 0.179881
-0.546691 1.19809 3.35137 0.34235 0.190075
-0.579738 1.19072 3.37095 0.334596 0.201594
-0.611858 1.18288 3.39175 0.326464 0.214596
-0.642999 1.17456 3.41393 0.317984 0.229265
-0.673111 1.16577 3.43767 0.309191 0.245809
-0.702146 1.15651 3.46317 0.300122 0.264465
-0.730058 1.1468 3.49065 0.290819 0.2855
-0.756802 1.13662 3.52037 0.281329 0.309208
-0.782336 1.12599 3.5526 0.271704 0.335908
-0.806618 1.11491 3.58767 0.262004 0.365938
-0.829609 1.10338 3.62592 0.252296 0.399633
-0.851273 1.09142 3.66774 0.242653 0.437305
-0.871576 1.07901 3.71354 0.23316 0.479189
-0.890484 1.06618 3.76375 0.223913 0.525387
-0.907967 1.05291 3.81878 0.215018 0.575765
-0.923998 1.03923 3.87905 0.206595 0.629831
-0.938551 1.02513 3.94487 0.198774 0.686593
-0.951602 1.01062 4.01643 0.191696 0.744402
-0.963131 0.995707 4.09374 0.18551 0.80086
-0.973119 0.980395 4.17649 0.180365 0.852835
-0.98155 0.964691 4.26407 0.176402 0.896679
-0.988411 0.948601 4.35548 0.173746 0.928687
-0.993691 0.932132 4.44936 0.17249 0.945754
-0.997381 0.915289 4.54411 0.172692 0.946043
-0.999476 0.898081 4.63805 0.174361 0.929435
-0.999971 0.880513 4.72954 0.177462 0.897557
-0.998867 0.862594 4.8172 0.181921 0.853381
-0.996165 0.844329 4.89997 0.187628 0.800571
-0.991869 0.825727 4.97719 0.194454 0.742811
-0.985986 0.806794 5.04852 0.20226 0.683312
-0.978526 0.787538 5.11392 0.210904 0.624572
-0.969501 0.767968 5.17356 0.220249 0.568327
-0.958924 0.74809 5.22774 0.230166 0.515645
-0.946814 0.727913 5.27685 0.240538 0.467071
-0.933189 0.707445 5.32132 0.251256 0.422771
-0.91807 0.686694 5.36157 0.262226 0.382667
-0.901484 0.665669 5.39801 0.27336 0.346529
-0.883455 0.644377 5.43102 0.284583 0.314051
-0.864012 0.622827 5.46095 0.295826 0.284892
-0.843188 0.601028 5.48812 0.307026 0.258709
-0.821014 0.578989 5.5128 0.318129 0.235174
-0.797527 0.556718 5.53524 0.329085 0.213983
-0.772764 0.534225 5.55568 0.339848 0.19486
-0.746765 0.511518 5.57429 0.350377 0.177558
-0.719572 0.488606 5.59125 0.360634 0.161855
-0.691227 0.465499 5.60672 0.370585 0.14756
-0.661776 0.442205 5.62081 0.380199 0.1345
-0.631267 0.418735 5.63366 0.389446 0.122527
-0.599747 0.395097 5.64536 0.398299 0.111508
-0.567269 0.371302 5.656 0.406735 0.101329
-0.533882 0.347357 5.66566 0.414729 0.0918859
-0.499642 0.323274 5.6744 0.422262 0.0830905
-0.464602 0.299062 5.6823 0.429314 0.0748629
-0.428819 0.27473 5.6894 0.435869 0.0671323
-0.39235 0.250287 5.69574 0.441909 0.0598357
-0.355254 0.225745 5.70138 0.447422 0.0529164
-0.317589 0.201113 5.70634 0.452393 0.0463235
-0.279415 0.1764 5.71066 0.456812 0.0400103
-0.240795 0.151617 5.71435 0.460668 0.0339346
-0.20179 0.126772 5.71745 0.463953 0.028057
-0.162462 0.101878 5.71997 0.466659 0.0223411
-0.122874 0.0769421 5.72193 0.468781 0.0167525
-0.0830894 0.0519758 5.72333 0.470313 0.0112584
-0.0431719 0.0269887 5.72418 0.471253 0.00582762
-0.0031853 0.00199082 5.72449 0.471598 0.000429377
0.0368064 -0.0230079 5.72427 0.471348 -0.00496647
0.0767392 -0.0479974 5.7235 0.470502 -0.0103901
0.116549 -0.0729677 5.72219 0.469064 -0.0158719
0.156173 -0.0979088 5.72032 0.467036 -0.0214434
0.195547 -0.122811 5.71789 0.464422 -0.0271368
0.234607 -0.147664 5.71489 0.461229 -0.0329862
0.273293 -0.172457 5.71129 0.457464 -0.0390278
0.311541 -0.197182 5.70707 0.453134 -0.0453004
0.349291 -0.221828 5.70221 0.44825 -0.0518458
0.386483 -0.246385 5.69669 0.442823 -0.0587098
0.423055 -0.270844 5.69046 0.436866 -0.0659427
0.458951 -0.295194 5.68348 0.430392 -0.0736001
0.494113 -0.319426 5.67572 0.423418 -0.081744
0.528485 -0.343531 5.66711 0.41596 -0.0904439
0.562011 -0.367498 5.6576 0.408038 -0.0997778
0.594637 -0.391318 5.64712 0.399671 -0.109834
0.626313 -0.414981 5.6356 0.390883 -0.120711
0.656987 -0.438479 5.62294 0.381697 -0.132524
0.686609 -0.461801 5.60905 0.37214 -0.145401
0.715133 -0.484939 5.59381 0.36224 -0.159489
0.742513 -0.507882 5.5771 0.35203 -0.174955
0.768705 -0.530622 5.55876 0.341541 -0.191989
0.793668 -0.553151 5.53863 0.330813 -0.210806
0.817361 -0.575457 5.51651 0.319885 -0.23165
0.839746 -0.597534 5.49221 0.308802 -0.254792
0.860787 -0.619372 5.46545 0.297614 -0.280531
0.880452 -0.640962 5.43598 0.286374 -0.309194
0.898708 -0.662295 5.40349 0.275144 -0.34112
0.915526 -0.683364 5.36762 0.26399 -0.376653
0.93088 -0.704159 5.328 0.252989 -0.416107
0.944745 -0.724673 5.28423 0.242224 -0.459729
0.957098 -0.744897 5.23589 0.231791 -0.507626
0.96792 -0.764822 5.18254 0.221793 -0.559679
0.977193 -0.784442 5.1238 0.212349 -0.615412
0.984903 -0.803748 5.05933 0.203584 -0.673853
0.991038 -0.822733 4.98895 0.195635 -0.733377
0.995587 -0.841389 4.91266 0.188643 -0.791613
0.998543 -0.859708 4.83073 0.182749 -0.84545
0.999902 -0.877683 4.74379 0.178084 -0.891254
0.999662 -0.895307 4.65282 0.17476 -0.925316
0.997822 -0.912573 4.55917 0.17286 -0.944507
0.994385 -0.929474 4.46443 0.172424 -0.946948
0.989358 -0.946003 4.3703 0.17345 -0.932472
0.982748 -0.962154 4.27841 0.175889 -0.90266
0.974566 -0.97792 4.19014 0.179651 -0.86046
0.964825 -0.993295 4.10656 0.184617 -0.809528
0.953541 -1.00827 4.02836 0.190648 -0.753557
0.940731 -1.02285 3.95588 0.197593 -0.695782
0.926415 -1.03701 3.88915 0.205305 -0.638725
0.910618 -1.05076 3.82802 0.213642 -0.584148
0.893364 -1.06409 3.77218 0.22247 -0.533138
0.874681 -1.077 3.72123 0.231668 -0.486259
0.854599 -1.08947 3.67476 0.241128 -0.443689
0.833149 -1.10151 3.63233 0.250753 -0.40536
0.810367 -1.1131 3.59354 0.260457 -0.37105
0.786288 -1.12426 3.55799 0.270163 -0.340459
0.760951 -1.13496 3.52532 0.279803 -0.313251
0.734397 -1.14521 3.49522 0.289318 -0.289089
0.706668 -1.155 3.4674 0.298655 -0.267649
0.677809 -1.16433 3.44161 0.307764 -0.248632
0.647865 -1.17319 3.4176 0.316604 -0.231769
0.616884 -1.18158 3.39518 0.325136 -0.216816
0.584917 -1.1895 3.37417 0.333326 -0.203561
0.552014 -1.19695 3.35441 0.341141 -0.191817
0.518228 -1.20391 3.33576 0.348556 -0.181422
0.483613 -1.2104 3.31809 0.355543 -0.172233
0.448224 -1.2164 3.30127 0.362079 -0.164128
0.412118 -1.22191 3.28522 0.368146 -0.157003
0.375353 -1.22694 3.26984 0.373723 -0.150766
0.337988 -1.23147 3.25504 0.378795 -0.145341
0.300081 -1.23551 3.24074 0.383347 -0.14066
0.261695 -1.23906 3.22688 0.387365 -0.136669
0.22289 -1.24211 3.21339 0.39084 -0.13332
0.183728 -1.24467 3.2002 0.393762 -0.130575
0.144273 -1.24673 3.18725 0.396122 -0.128403
0.104586 -1.24829 3.1745 0.397916 -0.12678
0.0647327 -1.24934 3.16188 0.399137 -0.125688
0.0247754 -1.2499 3.14934 0.399783 -0.125115
-0.0152215 -1.24996 3.13683 0.399852 -0.125054
-0.055194 -1.24952 3.12431 0.399343 -0.125504
-0.0950782 -1.24858 3.11171 0.398259 -0.126472
-0.13481 -1.24714 3.099 0.396603 -0.127967
-0.174327 -1.24521 3.0861 0.394377 -0.130005
-0.213564 -1.24277 3.07297 0.391589 -0.13261
-0.25246 -1.23984 3.05956 0.388245 -0.135812
-0.290952 -1.23641 3.04579 0.384356 -0.139646
-0.328979 -1.23248 3.0316 0.37993 -0.144157
-0.366479 -1.22807 3.01693 0.374981 -0.149399
-0.403393 -1.22316 3.00169 0.369523 -0.155436
-0.439662 -1.21776 2.98581 0.363572 -0.162341
-0.475227 -1.21188 2.96919 0.357146 -0.170202
-0.510032 -1.20551 2.95173 0.350264 -0.179122
-0.544021 -1.19866 2.93332 0.34295 -0.189217
-0.57714 -1.19132 2.91384 0.335228 -0.200625
-0.609335 -1.18352 2.89314 0.327125 -0.213502
-0.640556 -1.17524 2.87108 0.318672 -0.228031
-0.670752 -1.16649 2.84747 0.309902 -0.244417
-0.699875 -1.15727 2.82212 0.300853 -0.262896
-0.727878 -1.14759 2.7948 0.291567 -0.283731
-0.754717 -1.13745 2.76527 0.28209 -0.307214
-0.780348 -1.12685 2.73325 0.272474 -0.333664
-0.804731 -1.11581 2.69842 0.262778 -0.363416
-0.827826 -1.10432 2.66043 0.253067 -0.396808
-0.849598 -1.09239 2.61891 0.243416 -0.434153
-0.87001 -1.08002 2.57345 0.233908 -0.475696
-0.88903 -1.06721 2.52361 0.224638 -0.521551
-0.906628 -1.05398 2.46897 0.215711 -0.571608
-0.922775 -1.04033 2.40914 0.207245 -0.62541
-0.937447 -1.02627 2.34377 0.199371 -0.682008
-0.950618 -1.01179 2.27266 0.192229 -0.739811
-0.962269 -0.996909 2.19581 0.185967 -0.796483
-0.97238 -0.981629 2.11347 0.180733 -0.848944
-0.980936 -0.965956 2.02624 0.176672 -0.893574
-0.987923 -0.949896 1.9351 0.173907 -0.926651
-0.993329 -0.933457 1.84136 0.172538 -0.944996
-0.997146 -0.916644 1.74661 0.172622 -0.94665
-0.999367 -0.899465 1.65255 0.174175 -0.931349
-0.99999 -0.881925 1.56081 0.177164 -0.900591
-0.999013 -0.864033 1.4728 0.181518 -0.857266
-0.996438 -0.845796 1.3896 0.18713 -0.805005
-0.992269 -0.82722 1.31193 0.193873 -0.747512
-0.986513 -0.808313 1.24013 0.201606 -0.688051
-0.979178 -0.789083 1.17426 0.210188 -0.629177
-0.970276 -0.769538 1.11417 0.219482 -0.572686
-0.959823 -0.749684 1.05957 0.229358 -0.519694
-0.947834 -0.729531 1.01007 0.239698 -0.470782
-0.934329 -0.709086 0.965245 0.250392 -0.426143
-0.919329 -0.688357 0.924674 0.261345 -0.385711
-0.902858 -0.667353 0.887946 0.272469 -0.349269
-0.884943 -0.646082 0.854677 0.283688 -0.316511
-0.865612 -0.624552 0.824513 0.294931 -0.287101
-0.844896 -0.602773 0.797139 0.306137 -0.260693
-0.822829 -0.580753 0.77227 0.31725 -0.236959
-0.799445 -0.5585 0.749653 0.328219 -0.215592
-0.774782 -0.536024 0.729068 0.338999 -0.196313
-0.74888 -0.513334 0.710317 0.349548 -0.178874
-0.72178 -0.490438 0.693228 0.359828 -0.163052
-0.693525 -0.467346 0.677649 0.369805 -0.148651
-0.664161 -0.444067 0.663447 0.379447 -0.135499
-0.633734 -0.42061 0.650504 0.388724 -0.123444
-0.602293 -0.396986 0.638718 0.397609 -0.112354
-0.569889 -0.373202 0.627998 0.406079 -0.102111
-0.536573 -0.349269 0.618264 0.414109 -0.092613
-0.502399 -0.325197 0.609447 0.42168 -0.0837691
-0.46742 -0.300994 0.601486 0.428771 -0.075499
-0.431695 -0.276671 0.594326 0.435366 -0.0677312
-0.395278 -0.252238 0.587921 0.441448 -0.0604022
-0.358229 -0.227703 0.582229 0.447002 -0.0534548
-0.320607 -0.203078 0.577215 0.452017 -0.0468376
-0.282473 -0.178371 0.572849 0.45648 -0.0405038
-0.243886 -0.153592 0.569104 0.460381 -0.0344107
-0.204909 -0.128753 0.565958 0.463712 -0.0285187
-0.165604 -0.103862 0.563392 0.466465 -0.0227912
-0.126035 -0.0789291 0.561393 0.468633 -0.0171936
-0.0862633 -0.0539649 0.559949 0.470213 -0.0101212
-0.046354 -0.028979 0.559365 0.470855 -0.00583359
